#Parameters = {R=50}
#"Wavelength / nm"	"Total ACS [pw] (R=50) [Magnitude]"
#-----------------------------------------------------
788.92752105263	1.9411707853818
782.74793211488	3.2998066744178
776.66439896373	4.5494859969959
770.67469922879	5.2819538597970
764.77667857143	5.5280156981029
758.96824810127	5.4860210993254
753.24738190955	5.6224216018020
747.61211471322	5.9154298879275
742.06053960396	6.3787195563602
736.59080589681	7.0544536193527
731.20111707317	7.8529520376604
725.88972881356	8.7929611885328
720.65494711538	9.8072059253724
715.49512649165	10.574693734926
710.40866824645	11.372917642074
705.39401882353	12.298437873891
700.44966822430	13.321188236396
695.57414849188	14.675640606081
690.76603225806	16.138696454030
686.02393135011	17.705235024078
681.34649545455	19.364896198411
676.73241083521	21.212755287704
672.18039910314	23.208829645667
667.68921603563	25.204503120799
663.25765044248	27.212840843592
658.88452307692	29.364857793504
654.56868558952	31.803187831059
650.30901952278	34.358382805114
646.10443534483	37.089590904250
641.95387152034	39.948271148455
637.85629361702	42.936510656591
633.81069344609	46.069227139714
629.81608823529	49.354620737277
625.87151983299	52.634872648351
621.97605394191	56.083612079649
618.12877938144	59.836367646059
614.32880737705	63.917961092783
610.57527087576	68.227454174388
606.86732388664	73.392261857599
603.20414084507	78.965956784699
599.58491600000	84.795737454810
596.00886282306	90.355632935097
592.47521343874	96.245783294373
588.98321807466	102.64919592706
585.53214453125	109.91654808324
582.12127766990	117.65433078692
578.74991891892	126.02356648792
575.41738579655	135.20957555541
572.12301145038	145.05427978309
568.86614421252	155.63499206364
565.64614716981	167.06398637665
562.46239774859	179.37640882373
559.31428731343	192.99197916770
556.20122077922	208.92211466569
553.12261623616	226.20614633855
550.07790458716	245.00153436200
547.06652919708	265.88040403376
544.08794555354	288.71687511196
541.14162093863	313.74649246666
538.22703411131	342.42952507938
535.34367500000	374.90342605417
532.49104440497	410.91235469840
529.66865371025	451.22993165045
526.87602460457	498.32258442064
524.11268881119	550.83437096640
521.37818782609	610.24870688121
518.67207266436	677.28835818157
515.99390361446	753.54974837359
513.34325000000	840.84250161414
510.71968994889	941.74080197791
508.12281016949	1069.6185666192
505.55220573356	1224.3472908471
503.00747986577	1407.6603481006
500.48824373957	1626.5792301336
497.99411627907	1892.9529341691
495.52472396694	2218.2340209654
493.07970065789	2618.7710767068
490.65868739771	3117.4605683319
488.26133224756	3788.8472278913
485.88729011345	4678.2655383816
483.53622258065	5849.8259251405
481.20779775281	7410.4933919404
478.90169009585	9562.9134235459
476.61758028617	12530.971359718
474.35515506329	16382.520153562
472.11410708661	20924.301207072
469.89413479624	25263.779696594
467.69494227769	27847.382168789
465.51623913043	27067.648825830
463.35774034003	23708.569439405
461.21916615385	19553.759413532
459.10024196018	15744.650261339
457.00069817073	12679.911427731
454.92027010622	10365.904669358
452.85869788520	8636.6835390964
450.81572631579	7336.5440285560
448.79110479042	6345.2771547217
446.78458718331	5589.5743241658
444.79593175074	5010.1350832267
442.82490103397	4562.5117566252
440.87126176471	4216.5082041477
438.93478477306	3974.8086846677
437.01524489796	3816.0651080520
435.11242089985	3711.8000982031
433.22609537572	3656.9662903309
431.35605467626	3648.9875390187
429.50208882521	3692.7788382534
427.66399144080	3805.1143313319
425.84155965909	3981.1674991836
424.03459405941	4229.3443227877
422.24289859155	4561.5360207232
420.46628050491	4993.9137462905
418.70455027933	5629.8836262720
416.95752155772	6480.6459938873
415.22501108033	7564.6566994899
413.50683862069	8926.8364162194
411.80282692308	10601.141864968
410.11280164159	12585.127059593
408.43659128065	15232.726115803
406.77402713704	17858.485529768
405.12494324324	19899.813338431
403.48917631225	20906.811498108
401.86656568365	20773.418272206
400.25695327103	19701.859595816
398.66018351064	17362.997849457
397.07610331126	14812.633969014
395.50456200528	12647.579780918
393.94541130092	10964.864061611
392.39850523560	9697.1445618111
390.86370013038	8746.4078374081
389.34085454545	8159.2272437228
387.82982923674	7933.1651435636
386.33048711340	7837.2044673056
384.84269319641	7844.1635557911
#Parameters = {R=60}
#"Wavelength / nm"	"Total ACS [pw] (R=60) [Magnitude]"
#-----------------------------------------------------
788.92752105263	6.4310691972062
782.74793211488	8.6022181297938
776.66439896373	10.567610897751
770.67469922879	12.292046778934
764.77667857143	14.360388253114
758.96824810127	16.615746557097
753.24738190955	19.379166383742
747.61211471322	22.149406058671
742.06053960396	24.896428391947
736.59080589681	27.863751773293
731.20111707317	31.050808537761
725.88972881356	34.654768006526
720.65494711538	38.541041338793
715.49512649165	41.858549323152
710.40866824645	45.266927711434
705.39401882353	49.033153460879
700.44966822430	53.070672266856
695.57414849188	58.034101262336
690.76603225806	63.406662180372
686.02393135011	69.247894212907
681.34649545455	75.502002912070
676.73241083521	82.592911049067
672.18039910314	90.364314039431
667.68921603563	98.469491594901
663.25765044248	106.95097674653
658.88452307692	116.28654040986
654.56868558952	126.96704890027
650.30901952278	138.49637942837
646.10443534483	151.24653158078
641.95387152034	165.08703016237
637.85629361702	180.10785962332
633.81069344609	196.48380458309
629.81608823529	214.31230398633
625.87151983299	233.17732097665
621.97605394191	253.87301590917
618.12877938144	277.04191847717
614.32880737705	303.14603058292
610.57527087576	331.95761339507
606.86732388664	366.72161842739
603.20414084507	406.01919863981
599.58491600000	449.59166141284
596.00886282306	495.51506812283
592.47521343874	547.32672271331
588.98321807466	606.89358205631
585.53214453125	677.03748365469
582.12127766990	757.65830981274
578.74991891892	851.27536291000
575.41738579655	961.59993484515
572.12301145038	1090.3321571853
568.86614421252	1242.5544913706
565.64614716981	1424.8924802102
562.46239774859	1643.4955479381
559.31428731343	1911.2307913616
556.20122077922	2252.3398624165
553.12261623616	2675.4581396579
550.07790458716	3206.4144785946
547.06652919708	3895.3797266742
544.08794555354	4786.2543208383
541.14162093863	5951.6294138480
538.22703411131	7532.2156586555
535.34367500000	9670.7572396502
532.49104440497	12495.300097570
529.66865371025	16091.760900308
526.87602460457	20336.880396065
524.11268881119	24314.078109278
521.37818782609	26598.885951114
518.67207266436	26138.526049167
515.99390361446	23271.575147862
513.34325000000	19463.837610369
510.71968994889	15842.719048701
508.12281016949	12875.358176525
505.55220573356	10573.150220216
503.00747986577	8815.0856278389
500.48824373957	7472.3119343397
497.99411627907	6434.7776425363
495.52472396694	5631.4136998590
493.07970065789	5003.6324272287
490.65868739771	4509.1275689407
488.26133224756	4104.0045148890
485.88729011345	3782.3621576669
483.53622258065	3533.3048888408
481.20779775281	3343.8862706533
478.90169009585	3206.5633704216
476.61758028617	3117.0335299570
474.35515506329	3069.0901010512
472.11410708661	3059.4862220951
469.89413479624	3089.8122726516
467.69494227769	3179.6426747538
465.51623913043	3315.4006663930
463.35774034003	3502.8705027737
461.21916615385	3750.1419952144
459.10024196018	4100.7351360773
457.00069817073	4588.6870461280
454.92027010622	5202.5154601438
452.85869788520	5973.3669867284
450.81572631579	6941.1819694429
448.79110479042	8252.3011903541
446.78458718331	9977.8369436259
444.79593175074	12126.951600376
442.82490103397	14742.525114009
440.87126176471	17783.874018938
438.93478477306	21255.417903566
437.01524489796	24702.713361762
435.11242089985	27453.845741037
433.22609537572	29245.412589468
431.35605467626	30240.592666142
429.50208882521	30744.792464209
427.66399144080	30326.622766790
425.84155965909	27999.322493367
424.03459405941	24280.052801903
422.24289859155	20563.878640122
420.46628050491	17513.575814776
418.70455027933	15007.914928542
416.95752155772	13105.214454106
415.22501108033	11680.016419826
413.50683862069	10594.219980581
411.80282692308	9756.5479407587
410.11280164159	9106.8183696872
408.43659128065	8553.8880087182
406.77402713704	8159.0609231269
405.12494324324	7896.2540598299
403.48917631225	7760.4020675875
401.86656568365	7740.0458894501
400.25695327103	7833.7653816390
398.66018351064	8277.4736744694
397.07610331126	8925.0946090401
395.50456200528	9684.0806482542
393.94541130092	10478.259868714
392.39850523560	11267.248846088
390.86370013038	12060.605726203
389.34085454545	13027.103779909
387.82982923674	13806.284723240
386.33048711340	14059.964417629
384.84269319641	14007.513091548
#Parameters = {R=70}
#"Wavelength / nm"	"Total ACS [pw] (R=70) [Magnitude]"
#-----------------------------------------------------
788.92752105263	24.479549285403
782.74793211488	30.767627737484
776.66439896373	36.622287500925
770.67469922879	42.150073098872
764.77667857143	48.913286199196
758.96824810127	56.580608256696
753.24738190955	65.998010906782
747.61211471322	75.878987085971
742.06053960396	86.167011012107
736.59080589681	97.546832312624
731.20111707317	110.06166052746
725.88972881356	124.43573234363
720.65494711538	140.39809042642
715.49512649165	155.39855506436
710.40866824645	171.49182513240
705.39401882353	189.77567051488
700.44966822430	210.04524590410
695.57414849188	234.50853734907
690.76603225806	261.90371509603
686.02393135011	292.99868142165
681.34649545455	327.94943835709
676.73241083521	368.72503340974
672.18039910314	415.46349368788
667.68921603563	467.54693303060
663.25765044248	525.75990725258
658.88452307692	593.31513137700
654.56868558952	673.72970666711
650.30901952278	767.52872330925
646.10443534483	878.51871992023
641.95387152034	1009.1136693121
637.85629361702	1163.9599788014
633.81069344609	1348.9216662068
629.81608823529	1572.0914500029
625.87151983299	1840.5503242746
621.97605394191	2170.8270603959
618.12877938144	2586.5334193331
614.32880737705	3116.3135457739
610.57527087576	3793.0697140721
606.86732388664	4708.4918467380
603.20414084507	5920.7457423642
599.58491600000	7521.3660407021
596.00886282306	9594.0574277853
592.47521343874	12271.512050672
588.98321807466	15571.627320748
585.53214453125	19211.040140748
582.12127766990	22229.415612688
578.74991891892	23472.105107614
575.41738579655	22424.582296479
572.12301145038	19749.483047877
568.86614421252	16546.062251401
565.64614716981	13550.099834233
562.46239774859	11087.398868626
559.31428731343	9165.3805778262
556.20122077922	7706.7865069684
553.12261623616	6581.0678917688
550.07790458716	5711.4168421409
547.06652919708	5022.7339873110
544.08794555354	4484.0078613951
541.14162093863	4059.7802417908
538.22703411131	3729.0154081384
535.34367500000	3469.3194569177
532.49104440497	3269.1331553166
529.66865371025	3119.8308912545
526.87602460457	3019.9356861497
524.11268881119	2957.1904260739
521.37818782609	2928.2659119764
518.67207266436	2926.8171615532
515.99390361446	2953.5432433799
513.34325000000	3015.8631503177
510.71968994889	3115.3947649779
508.12281016949	3282.9807062637
505.55220573356	3509.4361134623
503.00747986577	3792.5083991547
500.48824373957	4142.1303645171
497.99411627907	4575.0993193680
495.52472396694	5103.6923983297
493.07970065789	5751.3117130296
490.65868739771	6540.3641940498
488.26133224756	7562.3337634760
485.88729011345	8841.9956618645
483.53622258065	10397.414741836
481.20779775281	12256.211759905
478.90169009585	14481.767789148
476.61758028617	17041.782746375
474.35515506329	19708.756369415
472.11410708661	22232.953102618
469.89413479624	24396.581189004
467.69494227769	26350.630634043
465.51623913043	28345.551161512
463.35774034003	31511.799637420
461.21916615385	36970.756966622
459.10024196018	41793.063379039
457.00069817073	37468.812481566
454.92027010622	28649.125172907
452.85869788520	21972.254578226
450.81572631579	17662.173914753
448.79110479042	14779.762886899
446.78458718331	12786.717294106
444.79593175074	11350.194124987
442.82490103397	10271.835548867
440.87126176471	9439.7220092552
438.93478477306	8834.6233286791
437.01524489796	8398.6156542198
435.11242089985	8064.8710931112
433.22609537572	7816.2567821354
431.35605467626	7645.8406299497
429.50208882521	7553.8111617139
427.66399144080	7559.3933443543
425.84155965909	7662.9967441049
424.03459405941	7878.4019316184
422.24289859155	8237.7554274121
420.46628050491	8777.9527913508
418.70455027933	9673.3851610883
416.95752155772	10920.327338035
415.22501108033	12403.379788345
413.50683862069	13787.235875433
411.80282692308	14718.508699917
410.11280164159	15205.946160683
408.43659128065	15698.484308858
406.77402713704	16521.132341529
405.12494324324	17727.137614025
403.48917631225	19042.811418764
401.86656568365	20079.846447867
400.25695327103	20456.524671681
398.66018351064	19846.206179331
397.07610331126	18557.576438561
395.50456200528	17301.557606884
393.94541130092	16407.879727569
392.39850523560	15950.246609414
390.86370013038	15893.427821780
389.34085454545	16527.488729896
387.82982923674	17654.499130570
386.33048711340	18525.883745666
384.84269319641	19009.900651311
#Parameters = {R=80}
#"Wavelength / nm"	"Total ACS [pw] (R=80) [Magnitude]"
#-----------------------------------------------------
788.92752105263	174.24319299439
782.74793211488	198.45415850086
776.66439896373	222.76346775758
770.67469922879	247.68586852796
764.77667857143	277.91021835505
758.96824810127	313.19027489806
753.24738190955	356.62250445350
747.61211471322	405.09789135630
742.06053960396	459.21550277804
736.59080589681	521.98581482149
731.20111707317	594.29660481306
725.88972881356	682.34900875865
720.65494711538	786.74438721189
715.49512649165	898.72612068652
710.40866824645	1030.1042251000
705.39401882353	1191.7431432106
700.44966822430	1388.6398340830
695.57414849188	1638.8721336288
690.76603225806	1949.9000670992
686.02393135011	2347.8213948450
681.34649545455	2856.7571279684
676.73241083521	3528.8392124920
672.18039910314	4417.0192399503
667.68921603563	5580.8370925873
663.25765044248	7109.6757451655
658.88452307692	9129.9734077086
654.56868558952	11744.412912725
650.30901952278	14800.866775631
646.10443534483	17827.558338944
641.95387152034	19845.488820513
637.85629361702	20021.340254917
633.81069344609	18415.080992743
629.81608823529	15880.066620808
625.87151983299	13209.352119533
621.97605394191	10885.877590344
618.12877938144	9020.1703887285
614.32880737705	7569.7117904643
610.57527087576	6444.4852050639
606.86732388664	5593.5287399025
603.20414084507	4937.5117991003
599.58491600000	4419.7501537801
596.00886282306	3989.8532077626
592.47521343874	3653.5542950113
588.98321807466	3391.3130662605
585.53214453125	3195.4545877536
582.12127766990	3050.8260307399
578.74991891892	2946.2952643177
575.41738579655	2881.2555905993
572.12301145038	2850.4487986040
568.86614421252	2850.8890686921
565.64614716981	2881.4505765512
562.46239774859	2945.5287989999
559.31428731343	3047.8959670363
556.20122077922	3202.7016707638
553.12261623616	3399.9054742273
550.07790458716	3644.9957123825
547.06652919708	3951.2748105315
544.08794555354	4322.6682901356
541.14162093863	4776.2006127793
538.22703411131	5339.8130428631
535.34367500000	6032.2503032123
532.49104440497	6863.7410663817
529.66865371025	7857.6490869585
526.87602460457	9077.5872968823
524.11268881119	10505.781156464
521.37818782609	12142.155907987
518.67207266436	13973.062868163
515.99390361446	15934.417785954
513.34325000000	17900.903419398
510.71968994889	19745.316603780
508.12281016949	21577.075808844
505.55220573356	23450.969349528
503.00747986577	25860.368573549
500.48824373957	30097.725131409
497.99411627907	38579.970056456
495.52472396694	51451.847643099
493.07970065789	53905.774804345
490.65868739771	40666.554719940
488.26133224756	28247.577000286
485.88729011345	20891.845839363
483.53622258065	16591.133312627
481.20779775281	13852.359988573
478.90169009585	11951.902603534
476.61758028617	10563.031196247
474.35515506329	9518.4666062034
472.11410708661	8707.7959203984
469.89413479624	8066.4242171888
467.69494227769	7565.2509082458
465.51623913043	7168.9737103189
463.35774034003	6857.8694032412
461.21916615385	6622.5782657640
459.10024196018	6488.1378751704
457.00069817073	6464.1376332913
454.92027010622	6512.8903962929
452.85869788520	6647.8574083964
450.81572631579	6893.1991537182
448.79110479042	7347.7698729530
446.78458718331	8094.4370195200
444.79593175074	9242.8116917124
442.82490103397	11040.045862783
440.87126176471	13835.415041400
438.93478477306	17931.879398758
437.01524489796	21864.977278867
435.11242089985	22922.762375870
433.22609537572	21618.587463475
431.35605467626	19954.103021853
429.50208882521	18939.991355279
427.66399144080	19036.675034794
425.84155965909	20210.209634952
424.03459405941	22089.299894782
422.24289859155	24158.657377403
420.46628050491	25729.377550193
418.70455027933	26202.721678390
416.95752155772	25208.611959068
415.22501108033	23319.922297409
413.50683862069	21254.102358241
411.80282692308	19450.385320170
410.11280164159	18072.721303143
408.43659128065	17067.025370450
406.77402713704	16625.171134381
405.12494324324	16668.500687619
403.48917631225	17117.730580651
401.86656568365	17921.574954031
400.25695327103	19056.624178626
398.66018351064	21181.632964963
397.07610331126	23606.182495983
395.50456200528	25753.935083815
393.94541130092	27100.021604678
392.39850523560	27330.058330032
390.86370013038	26564.414997079
389.34085454545	24929.074541296
387.82982923674	23246.613616975
386.33048711340	22164.598581248
384.84269319641	21521.947089347
#Parameters = {R=90}
#"Wavelength / nm"	"Total ACS [pw] (R=90) [Magnitude]"
#-----------------------------------------------------
788.92752105263	722.87178301638
782.74793211488	864.91407625158
776.66439896373	1026.4990392772
770.67469922879	1214.0418325152
764.77667857143	1459.6230561608
758.96824810127	1774.4869694052
753.24738190955	2195.5602844358
747.61211471322	2736.1875754388
742.06053960396	3438.0791531778
736.59080589681	4370.6453956594
731.20111707317	5611.7182527467
725.88972881356	7287.7127118348
720.65494711538	9453.1413822830
715.49512649165	11892.983175709
710.40866824645	14308.003080810
705.39401882353	16040.962721611
700.44966822430	16293.716348789
695.57414849188	15176.669243484
690.76603225806	13244.648464774
686.02393135011	11121.375367915
681.34649545455	9225.3685678665
676.73241083521	7694.6237720774
672.18039910314	6494.7026490188
667.68921603563	5560.6038376295
663.25765044248	4831.0510423305
658.88452307692	4269.1358585491
654.56868558952	3841.8907387916
650.30901952278	3509.1207005807
646.10443534483	3254.8248295907
641.95387152034	3059.8849894342
637.85629361702	2915.3997487036
633.81069344609	2809.6823136090
629.81608823529	2744.5481952186
625.87151983299	2703.7676420242
621.97605394191	2697.0009666541
618.12877938144	2726.1962283980
614.32880737705	2789.1016529196
610.57527087576	2886.0108881948
606.86732388664	3038.2971107699
603.20414084507	3231.8162512305
599.58491600000	3472.4516557979
596.00886282306	3741.5614506624
592.47521343874	4071.5941293723
588.98321807466	4476.4096493577
585.53214453125	4979.7313235804
582.12127766990	5581.2289695636
578.74991891892	6302.2244141305
575.41738579655	7167.5646931932
572.12301145038	8181.0411885899
